Time,Voltage
0,-30
0,-36
0,-38
0,-35
0,-33
0,-87
0,-32
0,-28
0,-34
0,-37
0,-86
0,-29
0,-31
0,-92
1,-28
1,-10
1,-37
1,-11
1,-12
1,-13
1,-85
1,-89
1,-30
1,-17
1,-88
1,-18
1,-31
1,-19
1,-20
1,-21
1,-29
1,-87
1,-25
1,-26
1,-32
1,-27
1,-86
1,-93
1,-22
1,-38
1,-35
1,-91
1,-33
1,-36
1,-92
1,-34
1,-7
1,-9
1,-90
1,-8
2,-93
2,-19
2,-91
2,-20
2,-9
2,-18
2,-86
2,-92
2,-29
2,-85
2,-84
2,-87
2,-7
2,-6
2,-10
2,-88
2,-11
2,-8
2,-12
2,-89
2,-90
3,-7
3,-89
3,-6
3,-92
3,-87
3,-86
3,-8
3,-85
3,-90
3,-84
3,-88
3,-93
3,-91
4,-91
4,-86
4,-90
4,-89
4,-88
4,-92
4,-93
4,-85
4,-7
4,-87
4,-6
5,-6
5,-92
5,-91
5,-90
5,-7
5,-87
5,-89
5,-93
5,-88
5,-86
5,-85
6,-90
6,-89
6,-86
6,-91
6,-93
6,-88
6,-85
6,-87
6,-92
6,-7
6,-6
7,-6
7,-91
7,-93
7,-87
7,-85
7,-90
7,-7
7,-86
7,-92
7,-89
7,-88
8,-91
8,-89
8,-84
8,-87
8,-90
8,-88
8,-7
8,-93
8,-92
8,-6
8,-86
8,-85
9,-91
9,-93
9,-86
9,-89
9,-88
9,-7
9,-87
9,-90
9,-85
9,-6
9,-84
9,-92
10,-6
10,-93
10,-86
10,-90
10,-85
10,-88
10,-92
10,-89
10,-87
10,-91
10,-7
11,-7
11,-90
11,-92
11,-89
11,-93
11,-87
11,-6
11,-91
11,-88
12,-89
12,-88
12,-91
12,-6
12,-87
12,-90
12,-7
12,-93
12,-92
13,-89
13,-92
13,-6
13,-87
13,-7
13,-88
13,-91
13,-93
13,-90
14,-89
14,-92
14,-93
14,-87
14,-91
14,-7
14,-6
14,-90
14,-88
14,-8
15,-9
15,-88
15,-89
15,-8
15,-7
15,-91
15,-6
15,-87
15,-92
15,-93
15,-90
16,-12
16,-13
16,-14
16,-26
16,-22
16,-11
16,-88
16,-21
16,-6
16,-91
16,-90
16,-87
16,-18
16,-20
16,-17
16,-89
16,-8
16,-92
16,-19
16,-15
16,-24
16,-93
16,-16
16,-7
16,-9
16,-10
16,-23
17,-22
17,-27
17,-19
17,-21
17,-20
17,-15
17,-16
17,-18
17,-17
17,-14
17,-87
17,-9
17,-89
17,-8
17,-90
17,-37
17,-28
17,-34
17,-33
17,-13
17,-38
17,-35
17,-92
17,-93
17,-88
17,-36
17,-7
17,-91
18,-91
18,-93
18,-89
18,-37
18,-92
18,-88
18,-87
18,-90
19,-92
19,-87
19,-91
19,-89
19,-93
19,-88
19,-90
20,-90
20,-93
20,-88
20,-92
20,-37
20,-91
20,-87
20,-89
20,-36
21,-92
21,-37
21,-89
21,-36
21,-90
21,-91
21,-88
21,-48
21,-87
21,-49
21,-93
21,-47
22,-37
22,-49
22,-89
22,-91
22,-35
22,-87
22,-51
22,-88
22,-47
22,-36
22,-92
22,-50
22,-93
22,-90
22,-48
23,-91
23,-93
23,-54
23,-88
23,-87
23,-53
23,-37
23,-89
23,-52
23,-35
23,-36
23,-50
23,-90
23,-48
23,-49
23,-51
23,-47
23,-92
24,-54
24,-91
24,-49
24,-48
24,-55
24,-88
24,-87
24,-92
24,-89
24,-52
24,-36
24,-93
24,-50
24,-35
24,-53
24,-51
24,-90
25,-91
25,-54
25,-55
25,-53
25,-52
25,-50
25,-48
25,-90
25,-49
25,-92
25,-34
25,-88
25,-89
25,-35
25,-36
25,-93
25,-87
25,-51
26,-92
26,-48
26,-35
26,-90
26,-52
26,-36
26,-49
26,-89
26,-50
26,-53
26,-34
26,-51
26,-47
26,-93
26,-88
26,-54
26,-91
27,-49
27,-88
27,-51
27,-90
27,-36
27,-37
27,-91
27,-92
27,-89
27,-52
27,-35
27,-93
27,-50
27,-48
27,-47
28,-36
28,-89
28,-90
28,-49
28,-88
28,-91
28,-38
28,-47
28,-92
28,-48
28,-37
29,-88
29,-89
29,-86
29,-90
29,-91
29,-87
29,-39
29,-38
29,-37
30,-89
30,-38
30,-85
30,-88
30,-87
30,-37
30,-86
30,-90
30,-39
31,-37
31,-90
31,-88
31,-38
31,-55
31,-48
31,-89
31,-49
31,-87
31,-86
31,-54
31,-39
31,-85
32,-50
32,-56
32,-51
32,-47
32,-87
32,-91
32,-88
32,-54
32,-53
32,-38
32,-89
32,-55
32,-37
32,-92
32,-90
32,-49
32,-86
32,-52
32,-48
33,-52
33,-92
33,-55
33,-90
33,-53
33,-56
33,-51
33,-54
33,-91
33,-89
33,-88
33,-37
33,-48
33,-49
33,-87
33,-93
33,-50
33,-38
33,-47
34,-50
34,-38
34,-52
34,-37
34,-55
34,-90
34,-48
34,-53
34,-56
34,-49
34,-51
34,-88
34,-92
34,-54
34,-91
34,-93
34,-87
34,-89
35,-89
35,-87
35,-38
35,-93
35,-92
35,-90
35,-88
35,-91
35,-37
36,-38
36,-91
36,-37
36,-90
36,-88
36,-89
36,-92
37,-38
37,-37
37,-36
38,-37
38,-34
38,-36
38,-38
38,-35
38,-33
39,-35
39,-47
39,-34
39,-50
39,-37
39,-32
39,-36
39,-43
39,-40
39,-44
39,-41
39,-42
39,-38
39,-49
39,-45
39,-46
39,-48
39,-33
39,-39
40,-42
40,-43
40,-56
40,-57
40,-55
40,-60
40,-61
40,-62
40,-63
40,-64
40,-46
40,-65
40,-45
40,-44
40,-74
40,-38
40,-40
40,-69
40,-73
40,-50
40,-67
40,-66
40,-35
40,-36
40,-51
40,-72
40,-70
40,-49
40,-48
40,-52
40,-37
40,-53
40,-68
40,-59
40,-47
40,-34
40,-54
40,-39
40,-41
40,-58
40,-71
40,-33
41,-66
41,-77
41,-86
41,-60
41,-51
41,-65
41,-78
41,-52
41,-53
41,-64
41,-79
41,-55
41,-54
41,-80
41,-90
41,-62
41,-81
41,-85
41,-56
41,-57
41,-61
41,-82
41,-58
41,-83
41,-59
41,-89
41,-63
41,-50
41,-76
41,-41
41,-42
41,-40
41,-88
41,-70
41,-72
41,-87
41,-43
41,-69
41,-73
41,-45
41,-74
41,-46
41,-44
41,-84
41,-47
41,-67
41,-68
41,-49
41,-48
41,-71
41,-75
42,-84
42,-59
42,-86
42,-58
42,-48
42,-56
42,-88
42,-52
42,-46
42,-85
42,-90
42,-47
42,-55
42,-49
42,-51
42,-54
42,-89
42,-53
42,-87
42,-50
42,-57
42,-60
42,-65
42,-78
42,-76
42,-67
42,-64
42,-79
42,-75
42,-68
42,-63
42,-66
42,-74
42,-62
42,-81
42,-80
42,-69
42,-71
42,-83
42,-70
42,-72
42,-73
42,-82
42,-77
42,-61
43,-46
43,-86
43,-83
43,-44
43,-71
43,-76
43,-49
43,-73
43,-70
43,-48
43,-67
43,-45
43,-69
43,-68
43,-47
43,-74
43,-87
43,-72
43,-75
43,-66
43,-65
43,-62
43,-80
43,-81
43,-55
43,-61
43,-56
43,-54
43,-63
43,-79
43,-57
43,-77
43,-82
43,-58
43,-52
43,-84
43,-64
43,-78
43,-60
43,-51
43,-59
43,-50
43,-53
43,-85
44,-42
44,-43
44,-44
44,-48
44,-55
44,-54
44,-46
44,-47
44,-53
44,-52
44,-50
44,-45
44,-49
44,-51
45,-41
45,-40
45,-43
45,-42
46,-42
46,-40
46,-41
47,-40
47,-39
47,-41
48,-39
48,-40
49,-39
49,-41
49,-40
50,-41
50,-39
50,-40
51,-41
51,-40
52,-41
52,-40
53,-42
53,-41
53,-40
54,-40
54,-41
54,-42
55,-92
55,-41
55,-85
55,-40
55,-42
55,-86
56,-85
56,-89
56,-90
56,-42
56,-93
56,-88
56,-87
56,-40
56,-41
56,-86
56,-91
56,-92
57,-86
57,-92
57,-93
57,-90
57,-89
57,-43
57,-87
57,-85
57,-88
57,-42
57,-91
57,-41
58,-89
58,-91
58,-93
58,-86
58,-87
58,-43
58,-90
58,-41
58,-88
58,-42
58,-92
59,-92
59,-88
59,-91
59,-40
59,-86
59,-89
59,-42
59,-87
59,-90
59,-41
60,-88
60,-40
60,-90
60,-89
60,-87
60,-92
60,-86
60,-42
60,-91
60,-85
60,-41
61,-41
61,-40
61,-91
61,-39
61,-85
61,-87
61,-93
61,-89
61,-86
61,-88
61,-92
61,-90
62,-38
62,-84
62,-93
62,-40
62,-88
62,-91
62,-39
62,-87
62,-90
62,-89
62,-85
62,-92
62,-86
63,-39
63,-38
63,-92
63,-90
63,-93
63,-86
63,-37
63,-89
63,-87
63,-91
63,-85
63,-88
64,-38
64,-89
64,-36
64,-37
64,-85
64,-92
64,-90
64,-87
64,-93
64,-91
64,-88
64,-86
65,-87
65,-89
65,-35
65,-37
65,-86
65,-91
65,-36
65,-88
65,-90
65,-93
65,-92
66,-88
66,-92
66,-36
66,-35
66,-93
66,-87
66,-90
66,-91
66,-89
67,-92
67,-87
67,-35
67,-91
67,-90
67,-88
67,-93
67,-36
67,-89
68,-90
68,-88
68,-36
68,-87
68,-91
68,-89
68,-92
68,-35
68,-93
69,-36
69,-87
69,-91
69,-93
69,-88
69,-92
69,-35
69,-90
69,-89
70,-36
70,-93
70,-87
70,-35
70,-92
70,-88
70,-89
70,-90
70,-91
71,-91
71,-89
71,-87
71,-90
71,-37
71,-92
71,-88
71,-93
71,-35
71,-36
72,-88
72,-91
72,-89
72,-90
72,-35
72,-37
72,-92
72,-87
72,-93
72,-36
73,-35
73,-90
73,-92
73,-93
73,-37
73,-88
73,-91
73,-87
73,-89
73,-36
74,-36
74,-35
74,-37
74,-93
74,-89
74,-92
74,-91
74,-88
74,-90
74,-87
75,-93
75,-35
75,-90
75,-36
75,-91
75,-87
75,-92
75,-88
75,-89
76,-89
76,-93
76,-92
76,-88
76,-35
76,-87
76,-36
76,-90
76,-91
77,-93
77,-35
77,-90
77,-92
77,-89
77,-88
77,-36
77,-91
77,-87
78,-34
78,-89
78,-91
78,-88
78,-93
78,-35
78,-36
78,-87
78,-90
78,-92
79,-35
79,-89
79,-91
79,-36
79,-88
79,-34
79,-93
79,-87
79,-90
79,-92
80,-87
80,-89
80,-35
80,-88
80,-90
80,-93
80,-34
80,-91
80,-92
80,-36
81,-88
81,-36
81,-89
81,-93
81,-90
81,-91
81,-92
81,-35
81,-34
82,-88
82,-90
82,-89
82,-92
82,-35
82,-91
82,-36
82,-34
83,-36
83,-35
83,-91
83,-87
83,-88
83,-34
83,-89
83,-90
84,-35
84,-90
84,-87
84,-36
84,-85
84,-34
84,-88
84,-89
84,-86
85,-85
85,-88
85,-86
85,-35
85,-89
85,-36
85,-34
85,-87
86,-86
86,-90
86,-89
86,-36
86,-34
86,-35
86,-88
86,-87
87,-88
87,-91
87,-35
87,-87
87,-89
87,-36
87,-93
87,-90
87,-92
88,-90
88,-35
88,-87
88,-93
88,-88
88,-91
88,-36
88,-89
88,-92
89,-36
89,-92
89,-88
89,-93
89,-91
89,-87
89,-89
89,-35
89,-90
90,-88
90,-93
90,-35
90,-37
90,-87
90,-92
90,-36
90,-89
90,-90
90,-91
91,-91
91,-88
91,-37
91,-92
91,-90
91,-35
91,-87
91,-89
91,-93
91,-36
92,-87
92,-93
92,-91
92,-36
92,-89
92,-88
92,-37
92,-92
92,-90
92,-35
93,-88
93,-92
93,-93
93,-35
93,-36
93,-89
93,-90
93,-37
93,-91
93,-87
94,-37
94,-35
94,-88
94,-92
94,-93
94,-91
94,-36
94,-90
94,-89
95,-86
95,-36
95,-85
95,-84
95,-87
95,-90
95,-88
95,-89
95,-35
95,-37
96,-89
96,-87
96,-36
96,-86
96,-35
96,-84
96,-90
96,-85
96,-37
96,-88
97,-92
97,-86
97,-85
97,-89
97,-35
97,-91
97,-84
97,-88
97,-36
97,-87
97,-90
97,-37
98,-91
98,-89
98,-86
98,-85
98,-35
98,-92
98,-88
98,-36
98,-34
98,-84
98,-90
98,-87
99,-87
99,-91
99,-36
99,-85
99,-88
99,-86
99,-84
99,-35
99,-34
99,-89
99,-92
99,-90
100,-87
100,-85
100,-89
100,-88
100,-34
100,-84
100,-90
100,-36
100,-35
100,-86
101,-36
101,-35
101,-87
101,-85
101,-84
101,-34
101,-86
102,-36
102,-35
102,-34
102,-37
103,-37
103,-38
103,-36
103,-35
104,-37
104,-38
104,-36
104,-39
105,-37
105,-39
105,-38
106,-37
106,-38
107,-37
107,-36
107,-38
108,-37
108,-38
108,-36
109,-36
109,-38
109,-37
110,-36
110,-37
110,-38
111,-36
111,-37
111,-35
112,-35
112,-34
112,-36
112,-37
113,-38
113,-35
113,-36
113,-32
113,-34
113,-37
113,-33
114,-44
114,-32
114,-37
114,-34
114,-71
114,-33
114,-47
114,-70
114,-60
114,-62
114,-59
114,-64
114,-45
114,-35
114,-38
114,-39
114,-63
114,-61
114,-54
114,-41
114,-36
114,-53
114,-52
114,-51
114,-58
114,-49
114,-50
114,-55
114,-46
114,-40
114,-56
114,-42
114,-43
114,-57
114,-48
115,-45
115,-74
115,-67
115,-35
115,-75
115,-48
115,-55
115,-86
115,-88
115,-41
115,-87
115,-38
115,-43
115,-68
115,-42
115,-71
115,-89
115,-70
115,-72
115,-50
115,-69
115,-49
115,-73
115,-52
115,-53
115,-36
115,-76
115,-54
115,-85
115,-37
115,-51
115,-66
115,-47
115,-61
115,-62
115,-81
115,-77
115,-57
115,-82
115,-60
115,-83
115,-59
115,-58
115,-39
115,-84
115,-34
115,-33
115,-40
115,-44
115,-80
115,-63
115,-46
115,-78
115,-79
115,-56
115,-64
115,-65
116,-51
116,-59
116,-55
116,-73
116,-47
116,-58
116,-69
116,-50
116,-67
116,-72
116,-79
116,-83
116,-70
116,-65
116,-89
116,-71
116,-77
116,-44
116,-92
116,-76
116,-46
116,-84
116,-75
116,-57
116,-74
116,-63
116,-48
116,-86
116,-56
116,-80
116,-87
116,-62
116,-88
116,-81
116,-68
116,-52
116,-49
116,-91
116,-64
116,-85
116,-54
116,-78
116,-90
116,-82
116,-60
116,-53
116,-45
116,-61
116,-66
117,-89
117,-93
117,-84
117,-45
117,-55
117,-85
117,-46
117,-62
117,-47
117,-54
117,-90
117,-81
117,-44
117,-53
117,-61
117,-82
117,-52
117,-86
117,-49
117,-51
117,-91
117,-60
117,-83
117,-50
117,-48
117,-63
117,-80
117,-79
117,-92
117,-58
117,-71
117,-70
117,-72
117,-69
117,-73
117,-68
117,-88
117,-74
117,-56
117,-75
117,-67
117,-76
117,-87
117,-57
117,-64
117,-78
117,-77
117,-66
117,-65
117,-59
118,-57
118,-54
118,-51
118,-53
118,-85
118,-52
118,-50
118,-56
118,-55
118,-90
118,-59
118,-92
118,-88
118,-87
118,-42
118,-43
118,-44
118,-89
118,-45
118,-93
118,-62
118,-47
118,-58
118,-61
118,-48
118,-60
118,-86
118,-49
118,-91
118,-46
118,-84
119,-89
119,-93
119,-92
119,-88
119,-40
119,-41
119,-42
119,-43
119,-44
119,-45
119,-87
119,-90
119,-46
119,-86
119,-91
120,-39
120,-89
120,-92
120,-88
120,-91
120,-86
120,-41
120,-40
120,-87
120,-90
121,-39
121,-40
121,-87
121,-88
121,-92
121,-91
121,-86
121,-38
121,-89
121,-90
122,-92
122,-91
122,-93
122,-38
122,-89
122,-87
122,-85
122,-39
122,-86
122,-90
122,-88
123,-89
123,-84
123,-92
123,-91
123,-38
123,-93
123,-86
123,-90
123,-87
123,-88
123,-39
123,-85
124,-86
124,-93
124,-88
124,-38
124,-85
124,-87
124,-91
124,-90
124,-39
124,-89
124,-92
125,-39
125,-91
125,-89
125,-92
125,-87
125,-38
125,-86
125,-90
125,-85
125,-88
126,-91
126,-92
126,-86
126,-89
126,-38
126,-88
126,-39
126,-87
126,-90
126,-85
127,-39
127,-91
127,-40
127,-90
127,-38
127,-85
127,-86
127,-88
127,-87
127,-92
127,-89
128,-93
128,-91
128,-85
128,-89
128,-92
128,-39
128,-88
128,-86
128,-40
128,-90
128,-84
128,-87
129,-87
129,-40
129,-90
129,-88
129,-93
129,-91
129,-89
129,-39
129,-85
129,-86
129,-84
129,-92
130,-93
130,-86
130,-87
130,-40
130,-85
130,-91
130,-90
130,-92
130,-39
130,-88
130,-89
131,-92
131,-88
131,-87
131,-93
131,-40
131,-86
131,-90
131,-39
131,-91
131,-84
131,-89
131,-85
132,-88
132,-86
132,-91
132,-93
132,-90
132,-40
132,-89
132,-87
132,-84
132,-39
132,-85
132,-92
133,-90
133,-87
133,-93
133,-84
133,-85
133,-88
133,-91
133,-86
133,-39
133,-40
133,-92
133,-89
134,-84
134,-85
134,-38
134,-87
134,-89
134,-92
134,-91
134,-88
134,-40
134,-90
134,-39
134,-93
134,-86
135,-89
135,-39
135,-91
135,-90
135,-85
135,-93
135,-92
135,-87
135,-88
135,-38
135,-40
135,-86
135,-84
136,-88
136,-86
136,-84
136,-93
136,-91
136,-38
136,-87
136,-85
136,-89
136,-39
136,-90
136,-37
136,-92
137,-90
137,-36
137,-86
137,-92
137,-87
137,-93
137,-88
137,-37
137,-38
137,-91
137,-85
137,-89
137,-84
138,-92
138,-35
138,-91
138,-88
138,-86
138,-36
138,-87
138,-93
138,-37
138,-85
138,-84
138,-90
138,-89
139,-34
139,-91
139,-84
139,-87
139,-90
139,-92
139,-88
139,-93
139,-36
139,-85
139,-86
139,-35
139,-89
140,-35
140,-34
140,-93
140,-92
140,-33
140,-89
140,-87
140,-86
140,-91
140,-88
140,-90
141,-35
141,-87
141,-92
141,-90
141,-93
141,-88
141,-34
141,-91
141,-89
141,-33
142,-91
142,-88
142,-92
142,-34
142,-33
142,-93
142,-35
142,-90
142,-87
142,-89
143,-89
143,-34
143,-91
143,-35
143,-88
143,-87
143,-93
143,-92
143,-33
143,-90
144,-34
144,-92
144,-35
144,-33
145,-34
145,-33
145,-35
146,-34
146,-35
147,-34
147,-35
148,-34
148,-35
149,-35
149,-34
150,-35
150,-33
150,-34
151,-34
151,-35
151,-33
152,-34
152,-33
153,-33
153,-34
153,-32
154,-34
154,-33
154,-32
155,-33
155,-34
155,-32
156,-34
156,-32
156,-33
157,-34
157,-33
157,-32
158,-34
158,-33
158,-32
159,-33
159,-34
160,-34
160,-33
161,-33
161,-34
161,-35
162,-35
162,-33
162,-34
163,-86
163,-35
163,-89
163,-88
163,-90
163,-33
163,-91
163,-34
163,-87
164,-88
164,-91
164,-89
164,-34
164,-92
164,-90
164,-86
164,-33
164,-85
164,-35
164,-87
165,-93
165,-91
165,-89
165,-90
165,-35
165,-92
165,-85
165,-86
165,-34
165,-84
165,-87
165,-88
166,-90
166,-85
166,-91
166,-88
166,-89
166,-84
166,-87
166,-92
166,-34
166,-93
166,-35
166,-86
167,-89
167,-87
167,-91
167,-86
167,-85
167,-34
167,-88
167,-35
167,-90
167,-92
168,-85
168,-35
168,-86
168,-92
168,-90
168,-34
168,-89
168,-91
168,-87
168,-88
169,-91
169,-35
169,-85
169,-87
169,-92
169,-86
169,-88
169,-34
169,-90
169,-89
170,-34
170,-87
170,-85
170,-35
170,-86
170,-92
170,-90
170,-88
170,-91
170,-93
170,-89
171,-90
171,-87
171,-85
171,-35
171,-86
171,-88
171,-91
171,-93
171,-92
171,-89
171,-84
171,-34
172,-85
172,-90
172,-88
172,-86
172,-35
172,-87
172,-34
172,-89
172,-92
172,-93
172,-91
173,-34
173,-90
173,-87
173,-35
173,-88
173,-33
173,-92
173,-89
173,-86
173,-91
173,-85
174,-85
174,-92
174,-88
174,-35
174,-90
174,-91
174,-33
174,-89
174,-34
174,-87
174,-86
175,-87
175,-90
175,-92
175,-89
175,-86
175,-91
175,-93
175,-33
175,-32
175,-34
175,-85
175,-88
176,-33
176,-34
176,-87
176,-84
176,-86
176,-92
176,-89
176,-91
176,-85
176,-32
176,-93
176,-88
176,-90
177,-33
177,-89
177,-92
177,-34
177,-91
177,-87
177,-35
177,-88
177,-90
177,-86
177,-85
177,-93
177,-84
177,-32
178,-93
178,-91
178,-89
178,-36
178,-92
178,-87
178,-88
178,-34
178,-85
178,-86
178,-35
178,-90
179,-93
179,-35
179,-89
179,-92
179,-88
179,-91
179,-37
179,-36
179,-90
180,-92
180,-88
180,-90
180,-37
180,-91
180,-36
180,-89
180,-35
180,-93
181,-90
181,-36
181,-86
181,-37
181,-89
181,-93
181,-92
181,-35
181,-91
181,-87
181,-88
182,-35
182,-37
182,-93
182,-90
182,-85
182,-92
182,-87
182,-86
182,-88
182,-36
182,-91
182,-89
183,-89
183,-85
183,-92
183,-90
183,-35
183,-87
183,-88
183,-91
183,-86
183,-93
183,-36
184,-35
184,-91
184,-36
184,-93
184,-87
184,-92
184,-89
184,-90
184,-88
184,-86
185,-91
185,-93
185,-36
185,-88
185,-35
185,-89
185,-92
185,-90
185,-34
186,-93
186,-92
186,-91
186,-35
186,-34
186,-36
187,-33
187,-35
187,-34
188,-32
188,-34
188,-35
188,-33
188,-31
189,-32
189,-35
189,-43
189,-46
189,-33
189,-42
189,-40
189,-41
189,-31
189,-30
189,-36
189,-34
190,-41
190,-43
190,-38
190,-79
190,-76
190,-63
190,-44
190,-39
190,-62
190,-32
190,-45
190,-40
190,-51
190,-58
190,-80
190,-84
190,-81
190,-72
190,-42
190,-70
190,-35
190,-53
190,-54
190,-68
190,-34
190,-85
190,-52
190,-55
190,-30
190,-65
190,-78
190,-74
190,-56
190,-64
190,-57
190,-67
190,-77
190,-60
190,-69
190,-31
190,-33
190,-83
190,-47
190,-66
190,-59
190,-49
190,-50
190,-71
190,-75
190,-48
190,-82
190,-61
190,-46
190,-73
190,-86
191,-65
191,-41
191,-55
191,-53
191,-81
191,-60
191,-80
191,-42
191,-82
191,-70
191,-61
191,-66
191,-62
191,-69
191,-68
191,-54
191,-75
191,-52
191,-85
191,-67
191,-64
191,-72
191,-73
191,-58
191,-89
191,-50
191,-45
191,-46
191,-51
191,-86
191,-63
191,-78
191,-49
191,-79
191,-43
191,-59
191,-83
191,-47
191,-84
191,-57
191,-56
191,-74
191,-48
191,-76
191,-44
191,-77
191,-71
191,-40
191,-88
191,-87
192,-89
192,-56
192,-66
192,-57
192,-62
192,-49
192,-45
192,-46
192,-86
192,-71
192,-47
192,-81
192,-61
192,-84
192,-58
192,-87
192,-67
192,-88
192,-69
192,-82
192,-59
192,-70
192,-48
192,-75
192,-60
192,-80
192,-50
192,-83
192,-55
192,-76
192,-68
192,-77
192,-73
192,-52
192,-78
192,-79
192,-44
192,-85
192,-65
192,-64
192,-43
192,-51
192,-53
192,-63
192,-74
192,-54
192,-72
193,-74
193,-85
193,-70
193,-53
193,-44
193,-52
193,-68
193,-58
193,-54
193,-50
193,-84
193,-45
193,-73
193,-55
193,-51
193,-49
193,-57
193,-43
193,-42
193,-67
193,-56
193,-59
193,-80
193,-63
193,-66
193,-46
193,-81
193,-61
193,-47
193,-79
193,-71
193,-41
193,-83
193,-64
193,-76
193,-75
193,-65
193,-72
193,-77
193,-60
193,-48
193,-69
193,-62
193,-82
193,-78
194,-51
194,-44
194,-41
194,-52
194,-50
194,-43
194,-39
194,-53
194,-49
194,-47
194,-45
194,-42
194,-48
194,-40
194,-46
195,-41
195,-40
195,-38
195,-39
196,-39
196,-38
196,-37
197,-38
197,-37
197,-39
198,-38
198,-37
199,-37
199,-38
200,-38
200,-37
201,-37
201,-38
202,-37
202,-38
203,-37
203,-38
204,-37
204,-39
204,-38
205,-37
205,-39
205,-38
206,-89
206,-85
206,-93
206,-91
206,-39
206,-86
206,-92
206,-90
206,-87
206,-38
206,-88
207,-87
207,-39
207,-86
207,-85
207,-88
207,-90
207,-92
207,-93
207,-91
207,-38
207,-89
208,-85
208,-93
208,-92
208,-90
208,-88
208,-89
208,-87
208,-39
208,-91
208,-38
208,-86
209,-93
209,-38
209,-91
209,-88
209,-87
209,-39
209,-86
209,-92
209,-85
210,-39
210,-37
210,-92
210,-38
210,-87
210,-91
210,-93
210,-85
210,-86
210,-88
211,-91
211,-38
211,-90
211,-37
211,-87
211,-88
211,-86
211,-36
211,-89
211,-92
211,-85
211,-93
212,-38
212,-90
212,-87
212,-85
212,-35
212,-89
212,-36
212,-93
212,-91
212,-86
212,-88
212,-92
212,-37
212,-84
213,-35
213,-89
213,-92
213,-37
213,-86
213,-90
213,-87
213,-34
213,-84
213,-85
213,-36
213,-91
213,-93
213,-88
214,-92
214,-33
214,-93
214,-88
214,-89
214,-84
214,-87
214,-35
214,-86
214,-85
214,-90
214,-34
214,-91
215,-87
215,-91
215,-33
215,-84
215,-89
215,-92
215,-85
215,-93
215,-88
215,-32
215,-86
215,-34
215,-90
216,-87
216,-91
216,-33
216,-90
216,-93
216,-86
216,-89
216,-85
216,-88
216,-34
216,-92
216,-84
216,-32
217,-86
217,-91
217,-87
217,-90
217,-85
217,-33
217,-93
217,-34
217,-89
217,-92
217,-88
217,-84
217,-32
218,-92
218,-89
218,-33
218,-87
218,-34
218,-90
218,-84
218,-93
218,-91
218,-86
218,-85
218,-32
218,-88
219,-86
219,-34
219,-85
219,-91
219,-33
219,-87
219,-92
219,-32
219,-84
219,-89
219,-90
219,-88
219,-93
220,-91
220,-87
220,-88
220,-90
220,-92
220,-33
220,-84
220,-85
220,-86
220,-93
220,-34
220,-89
221,-93
221,-84
221,-92
221,-89
221,-88
221,-34
221,-91
221,-86
221,-33
221,-87
221,-85
221,-90
222,-86
222,-87
222,-90
222,-84
222,-91
222,-93
222,-85
222,-88
222,-33
222,-92
222,-89
222,-34
223,-85
223,-90
223,-92
223,-93
223,-87
223,-86
223,-89
223,-91
223,-33
223,-84
223,-34
223,-88
224,-93
224,-92
224,-34
224,-89
224,-33
224,-88
224,-87
224,-85
224,-90
224,-84
224,-91
224,-86
225,-90
225,-91
225,-33
225,-34
225,-93
225,-92
226,-93
226,-92
226,-32
226,-34
226,-90
226,-91
226,-33
227,-90
227,-93
227,-34
227,-92
227,-32
227,-33
227,-91
228,-34
228,-91
228,-33
228,-32
229,-34
229,-33
229,-32
230,-32
230,-34
230,-33
231,-32
231,-33
231,-34
232,-32
232,-34
232,-33
233,-34
233,-32
233,-33
234,-34
234,-32
234,-33
235,-33
235,-34
235,-32
236,-34
236,-33
237,-34
237,-85
237,-33
237,-86
238,-34
238,-33
238,-35
238,-92
238,-90
238,-88
238,-89
238,-84
238,-86
238,-85
238,-91
238,-87
239,-33
239,-35
239,-87
239,-86
239,-90
239,-85
239,-88
239,-34
239,-89
239,-84
239,-93
239,-91
239,-92
240,-86
240,-88
240,-33
240,-91
240,-89
240,-34
240,-87
240,-90
240,-85
240,-84
240,-92
240,-35
241,-34
241,-91
241,-90
241,-33
241,-89
241,-88
241,-85
241,-35
241,-86
241,-87
242,-86
242,-91
242,-90
242,-33
242,-87
242,-85
242,-89
242,-88
242,-35
242,-34
243,-89
243,-91
243,-34
243,-92
243,-88
243,-86
243,-85
243,-35
243,-87
243,-90
244,-34
244,-90
244,-85
244,-93
244,-89
244,-87
244,-92
244,-86
244,-35
244,-91
244,-88
245,-84
245,-89
245,-93
245,-87
245,-90
245,-35
245,-91
245,-34
245,-86
245,-88
245,-85
245,-92
246,-34
246,-88
246,-89
246,-92
246,-90
246,-86
246,-91
246,-35
246,-87
246,-85
247,-92
247,-86
247,-91
247,-88
247,-34
247,-89
247,-87
247,-90
247,-35
248,-34
248,-35
249,-34
249,-35
250,-34
250,-35
250,-33
251,-34
251,-35
251,-33
252,-33
252,-34
253,-33
253,-35
253,-34
254,-35
254,-34
254,-36
254,-33
255,-36
255,-34
255,-37
255,-35
256,-36
256,-35
256,-37
256,-38
257,-38
257,-36
257,-37
258,-36
258,-37
259,-37
259,-36
259,-35
260,-37
260,-35
260,-36
261,-36
261,-35
261,-37
262,-36
262,-37
262,-35
263,-36
263,-35
263,-37
264,-34
264,-35
264,-36
265,-89
265,-86
265,-32
265,-34
265,-35
265,-36
265,-33
265,-88
265,-91
265,-31
265,-90
265,-87
266,-41
266,-49
266,-58
266,-37
266,-31
266,-90
266,-33
266,-47
266,-57
266,-52
266,-51
266,-56
266,-89
266,-30
266,-43
266,-44
266,-55
266,-36
266,-88
266,-50
266,-91
266,-54
266,-32
266,-53
266,-92
266,-59
266,-65
266,-48
266,-86
266,-87
266,-35
266,-34
266,-46
266,-45
266,-60
266,-85
266,-42
267,-93
267,-71
267,-81
267,-30
267,-31
267,-55
267,-35
267,-43
267,-48
267,-32
267,-72
267,-50
267,-89
267,-53
267,-91
267,-62
267,-77
267,-68
267,-54
267,-46
267,-80
267,-66
267,-61
267,-42
267,-59
267,-79
267,-41
267,-83
267,-63
267,-49
267,-76
267,-78
267,-67
267,-58
267,-70
267,-38
267,-36
267,-60
267,-90
267,-45
267,-75
267,-47
267,-57
267,-82
267,-64
267,-84
267,-34
267,-87
267,-56
267,-74
267,-65
267,-51
267,-44
267,-85
267,-33
267,-73
267,-92
267,-69
267,-88
267,-52
267,-40
267,-39
267,-86
268,-62
268,-65
268,-66
268,-90
268,-58
268,-73
268,-70
268,-59
268,-78
268,-47
268,-85
268,-82
268,-87
268,-61
268,-50
268,-75
268,-69
268,-80
268,-54
268,-43
268,-88
268,-55
268,-79
268,-60
268,-81
268,-45
268,-93
268,-44
268,-89
268,-76
268,-49
268,-51
268,-64
268,-72
268,-83
268,-86
268,-84
268,-46
268,-48
268,-92
268,-53
268,-91
268,-67
268,-57
268,-77
268,-52
268,-56
268,-71
268,-74
268,-68
268,-63
269,-73
269,-82
269,-50
269,-45
269,-83
269,-75
269,-65
269,-74
269,-64
269,-76
269,-47
269,-63
269,-56
269,-44
269,-55
269,-52
269,-60
269,-84
269,-89
269,-57
269,-70
269,-72
269,-88
269,-90
269,-67
269,-59
269,-93
269,-78
269,-62
269,-68
269,-54
269,-69
269,-71
269,-92
269,-53
269,-61
269,-87
269,-86
269,-81
269,-46
269,-48
269,-49
269,-80
269,-51
269,-77
269,-91
269,-66
269,-58
269,-85
269,-79
270,-59
270,-80
270,-52
270,-73
270,-49
270,-92
270,-89
270,-51
270,-76
270,-88
270,-77
270,-56
270,-90
270,-78
270,-44
270,-64
270,-79
270,-91
270,-47
270,-83
270,-65
270,-46
270,-48
270,-57
270,-63
270,-67
270,-53
270,-86
270,-68
270,-62
270,-84
270,-74
270,-50
270,-81
270,-66
270,-60
270,-87
270,-45
270,-85
270,-61
270,-55
270,-58
270,-82
270,-54
270,-93
270,-43
270,-72
270,-75
270,-70
270,-69
270,-71
271,-45
271,-44
271,-46
271,-89
271,-39
271,-84
271,-48
271,-87
271,-47
271,-90
271,-88
271,-92
271,-91
271,-41
271,-43
271,-40
271,-52
271,-49
271,-50
271,-85
271,-42
271,-51
271,-86
272,-90
272,-41
272,-87
272,-84
272,-86
272,-39
272,-91
272,-89
272,-92
272,-85
272,-88
272,-40
273,-92
273,-38
273,-89
273,-87
273,-40
273,-93
273,-88
273,-91
273,-84
273,-85
273,-90
273,-39
273,-86
274,-92
274,-91
274,-88
274,-93
274,-89
274,-84
274,-90
274,-39
274,-85
274,-38
274,-86
274,-87
275,-90
275,-88
275,-92
275,-38
275,-87
275,-93
275,-89
275,-86
275,-91
275,-85
275,-39
275,-84
276,-86
276,-92
276,-87
276,-85
276,-39
276,-89
276,-88
276,-84
276,-93
276,-91
276,-90
276,-38
277,-39
277,-84
277,-38
277,-91
277,-85
277,-93
277,-86
277,-92
277,-88
277,-89
277,-90
277,-87
278,-88
278,-89
278,-84
278,-38
278,-90
278,-92
278,-85
278,-91
278,-87
278,-93
278,-86
278,-39
279,-86
279,-90
279,-88
279,-38
279,-93
279,-87
279,-39
279,-85
279,-92
279,-84
279,-40
279,-91
279,-89
280,-86
280,-92
280,-91
280,-85
280,-87
280,-90
280,-84
280,-93
280,-39
280,-40
281,-39
281,-86
281,-85
281,-84
281,-92
281,-88
281,-90
281,-93
281,-87
281,-91
281,-89
281,-40
282,-92
282,-91
282,-86
282,-40
282,-90
282,-87
282,-88
282,-39
282,-89
282,-85
283,-40
283,-91
283,-89
283,-92
283,-39
283,-87
283,-86
283,-88
283,-90
284,-91
284,-40
284,-89
284,-39
284,-90
284,-87
284,-92
284,-88
285,-91
285,-92
285,-88
285,-87
285,-89
285,-40
285,-90
285,-39
286,-40
286,-39
287,-38
287,-39
287,-40
288,-39
288,-38
289,-39
289,-37
289,-38
290,-38
290,-36
290,-37
291,-35
291,-36
291,-37
292,-36
292,-35
292,-34
293,-92
293,-88
293,-34
293,-35
293,-90
293,-85
293,-91
293,-93
293,-89
293,-87
293,-86
294,-91
294,-92
294,-86
294,-35
294,-89
294,-85
294,-93
294,-34
294,-87
294,-88
294,-90
295,-86
295,-93
295,-34
295,-88
295,-92
295,-85
295,-89
295,-87
295,-90
295,-91
295,-35
296,-92
296,-87
296,-86
296,-93
296,-35
296,-91
296,-34
297,-87
297,-35
297,-91
297,-85
297,-92
297,-34
297,-86
297,-93
298,-35
298,-93
298,-91
298,-90
298,-86
298,-92
298,-34
298,-85
298,-89
298,-88
298,-87
299,-86
299,-35
299,-85
299,-34
299,-93
299,-88
299,-91
299,-89
299,-84
299,-92
299,-87
299,-90
300,-88
300,-91
300,-93
300,-34
300,-35
300,-90
300,-89
300,-84
300,-87
300,-86
300,-85
300,-92
301,-91
301,-88
301,-92
301,-89
301,-93
301,-90
301,-85
301,-35
301,-87
301,-34
301,-86
302,-91
302,-90
302,-33
302,-87
302,-89
302,-34
302,-88
302,-35
302,-86
303,-33
303,-35
303,-34
304,-33
304,-35
304,-34
305,-32
305,-34
305,-33
306,-33
306,-34
306,-32
307,-33
307,-32
307,-34
308,-32
308,-34
308,-33
309,-32
309,-33
309,-34
310,-33
310,-34
311,-33
311,-34
312,-33
312,-34
313,-34
313,-33
313,-35
314,-33
314,-34
314,-35
315,-34
315,-35
316,-34
316,-35
317,-34
317,-35
318,-34
318,-35
319,-33
319,-35
319,-34
320,-35
320,-34
321,-34
321,-35
322,-35
322,-34
323,-34
323,-35
324,-34
324,-35
325,-35
325,-34
326,-34
326,-35
327,-35
327,-34
328,-35
328,-33
328,-34
329,-34
329,-33
330,-32
330,-34
330,-33
331,-34
331,-32
331,-35
331,-33
332,-35
332,-33
332,-34
332,-36
333,-34
333,-37
333,-35
333,-36
334,-36
334,-37
334,-35
335,-35
335,-36
335,-37
336,-35
336,-37
336,-36
337,-35
337,-36
338,-35
338,-36
339,-35
339,-34
339,-36
340,-36
340,-35
340,-34
341,-35
341,-34
342,-35
342,-33
342,-34
343,-32
343,-31
343,-33
343,-30
343,-35
343,-34
344,-32
344,-46
344,-61
344,-36
344,-43
344,-48
344,-42
344,-30
344,-34
344,-44
344,-55
344,-60
344,-29
344,-45
344,-56
344,-51
344,-69
344,-59
344,-47
344,-58
344,-57
344,-37
344,-66
344,-67
344,-63
344,-35
344,-53
344,-50
344,-64
344,-33
344,-40
344,-68
344,-39
344,-71
344,-31
344,-54
344,-38
344,-62
344,-52
344,-70
344,-41
344,-65
344,-49
345,-56
345,-52
345,-69
345,-73
345,-88
345,-85
345,-67
345,-68
345,-50
345,-84
345,-37
345,-53
345,-49
345,-54
345,-48
345,-55
345,-34
345,-74
345,-33
345,-51
345,-72
345,-57
345,-66
345,-81
345,-80
345,-62
345,-70
345,-71
345,-79
345,-42
345,-63
345,-78
345,-64
345,-76
345,-39
345,-87
345,-38
345,-77
345,-65
345,-40
345,-61
345,-41
345,-60
345,-46
345,-58
345,-43
345,-45
345,-83
345,-86
345,-59
345,-47
345,-44
345,-82
345,-75
346,-46
346,-87
346,-85
346,-69
346,-47
346,-72
346,-89
346,-43
346,-45
346,-88
346,-71
346,-70
346,-48
346,-86
346,-44
346,-41
346,-42
346,-49
346,-54
346,-50
346,-82
346,-57
346,-67
346,-66
346,-80
346,-62
346,-59
346,-56
346,-75
346,-74
346,-79
346,-84
346,-63
346,-81
346,-55
346,-61
346,-65
346,-73
346,-77
346,-52
346,-51
346,-60
346,-83
346,-64
346,-68
346,-53
346,-76
346,-78
346,-58
347,-75
347,-42
347,-81
347,-43
347,-61
347,-51
347,-80
347,-62
347,-71
347,-79
347,-63
347,-78
347,-76
347,-64
347,-87
347,-77
347,-66
347,-70
347,-60
347,-65
347,-54
347,-49
347,-55
347,-84
347,-88
347,-74
347,-47
347,-82
347,-68
347,-56
347,-69
347,-67
347,-48
347,-52
347,-72
347,-57
347,-46
347,-58
347,-59
347,-45
347,-85
347,-83
347,-86
347,-44
347,-73
347,-50
347,-53
348,-76
348,-77
348,-82
348,-79
348,-74
348,-72
348,-80
348,-83
348,-75
348,-81
348,-78
348,-71
348,-73
348,-68
348,-63
348,-62
348,-61
348,-60
348,-59
348,-58
348,-57
348,-55
348,-50
348,-54
348,-53
348,-52
348,-69
348,-51
348,-67
348,-48
348,-47
348,-49
348,-66
348,-65
348,-64
348,-45
348,-42
348,-70
348,-43
348,-46
348,-44
348,-41
349,-43
349,-42
349,-51
349,-50
349,-38
349,-44
349,-39
349,-40
349,-48
349,-45
349,-49
349,-41
349,-46
349,-47
350,-41
350,-40
350,-37
350,-38
350,-39
351,-38
351,-39
351,-37
352,-37
352,-38
353,-37
353,-38
354,-37
354,-38
355,-38
355,-37
356,-37
356,-38
357,-37
357,-38
358,-38
358,-37
358,-39
359,-38
359,-37
359,-39
360,-39
360,-38
360,-37
361,-37
361,-38
361,-39
362,-39
362,-37
362,-38
363,-39
363,-38
363,-37
364,-38
364,-39
364,-37
365,-39
365,-36
365,-38
365,-37
366,-38
366,-37
366,-36
366,-35
367,-37
367,-34
367,-36
367,-35
368,-33
368,-34
368,-35
368,-36
369,-35
369,-33
369,-32
369,-34
370,-34
370,-33
370,-32
371,-32
371,-33
372,-32
372,-33
373,-33
373,-32
374,-33
374,-32
374,-34
375,-33
375,-34
375,-32
376,-32
376,-33
376,-34
377,-34
377,-33
377,-32
378,-33
378,-32
378,-34
379,-34
379,-33
379,-32
380,-33
380,-32
380,-34
381,-32
381,-33
381,-34
382,-33
382,-32
383,-33
383,-32
384,-33
384,-31
384,-32
385,-33
385,-32
385,-31
386,-33
386,-32
386,-31
387,-33
387,-32
387,-31
388,-31
388,-33
388,-32
389,-31
389,-32
389,-33
390,-33
390,-32
391,-33
391,-32
392,-32
392,-33
393,-32
393,-33
393,-34
394,-32
394,-34
394,-33
395,-34
395,-33
395,-32
396,-33
396,-34
396,-32
397,-34
397,-33
398,-33
398,-34
399,-34
399,-33
400,-34
400,-33
401,-34
401,-33
402,-34
402,-33
403,-34
403,-33
404,-33
404,-34
405,-32
405,-33
405,-34
406,-34
406,-32
406,-33
407,-32
407,-33
407,-31
408,-32
408,-33
408,-31
409,-34
409,-33
409,-32
410,-33
410,-36
410,-35
410,-34
411,-34
411,-36
411,-35
411,-37
412,-36
412,-35
412,-37
413,-35
413,-36
413,-37
414,-35
414,-36
415,-36
415,-34
415,-35
416,-34
416,-36
416,-35
417,-35
417,-36
417,-34
418,-36
418,-35
418,-34
419,-34
419,-35
419,-33
420,-31
420,-36
420,-34
420,-30
420,-32
420,-33
420,-35
421,-41
421,-43
421,-36
421,-37
421,-32
421,-29
421,-31
421,-44
421,-30
421,-33
421,-35
421,-34
421,-39
421,-40
421,-45
421,-42
421,-46
421,-47
421,-38
422,-47
422,-57
422,-63
422,-79
422,-48
422,-53
422,-83
422,-32
422,-41
422,-75
422,-61
422,-73
422,-46
422,-81
422,-40
422,-80
422,-68
422,-70
422,-45
422,-62
422,-71
422,-72
422,-69
422,-31
422,-66
422,-60
422,-85
422,-38
422,-29
422,-44
422,-65
422,-56
422,-64
422,-84
422,-58
422,-42
422,-43
422,-30
422,-35
422,-74
422,-86
422,-77
422,-37
422,-54
422,-87
422,-76
422,-34
422,-59
422,-78
422,-82
422,-67
422,-55
422,-36
422,-39
422,-33
423,-56
423,-68
423,-89
423,-51
423,-80
423,-81
423,-60
423,-84
423,-82
423,-55
423,-58
423,-77
423,-65
423,-70
423,-75
423,-74
423,-46
423,-50
423,-87
423,-61
423,-53
423,-88
423,-63
423,-57
423,-59
423,-47
423,-78
423,-67
423,-79
423,-76
423,-54
423,-73
423,-62
423,-71
423,-52
423,-83
423,-64
423,-69
423,-66
423,-85
423,-86
423,-72
424,-84
424,-81
424,-85
424,-88
424,-67
424,-72
424,-82
424,-60
424,-76
424,-57
424,-53
424,-61
424,-59
424,-78
424,-68
424,-90
424,-55
424,-54
424,-49
424,-86
424,-50
424,-87
424,-77
424,-74
424,-64
424,-65
424,-58
424,-71
424,-75
424,-70
424,-51
424,-89
424,-80
424,-62
424,-52
424,-73
424,-56
424,-66
424,-69
424,-83
424,-79
424,-63
425,-55
425,-68
425,-50
425,-59
425,-54
425,-53
425,-57
425,-52
425,-51
425,-58
425,-83
425,-45
425,-60
425,-69
425,-79
425,-63
425,-78
425,-82
425,-64
425,-43
425,-67
425,-77
425,-74
425,-44
425,-42
425,-65
425,-76
425,-48
425,-71
425,-47
425,-66
425,-46
425,-75
425,-70
425,-41
425,-49
425,-73
425,-56
425,-81
425,-62
425,-80
425,-61
425,-72
426,-49
426,-39
426,-47
426,-42
426,-50
426,-43
426,-40
426,-46
426,-51
426,-48
426,-44
426,-45
426,-52
426,-41
427,-40
427,-39
427,-41
427,-38
427,-42
428,-38
428,-39
428,-37
429,-37
429,-38
430,-38
430,-37
431,-37
431,-38
432,-38
432,-37
433,-37
433,-38
434,-37
434,-38
435,-37
435,-39
435,-38
436,-39
436,-37
436,-38
437,-39
437,-38
438,-38
438,-39
439,-39
439,-38
440,-38
440,-39
441,-38
441,-39
442,-38
442,-39
442,-37
443,-39
443,-37
443,-38
443,-36
444,-37
444,-36
444,-35
444,-38
445,-35
445,-36
445,-37
445,-34
446,-36
446,-34
446,-33
446,-35
447,-33
447,-34
447,-35
448,-34
448,-32
448,-33
449,-34
449,-33
449,-32
450,-32
450,-33
450,-34
451,-34
451,-33
452,-33
452,-34
453,-33
453,-34
453,-35
454,-33
454,-34
454,-35
455,-34
455,-35
455,-33
456,-35
456,-34
456,-33
457,-33
457,-34
458,-34
458,-33
459,-34
459,-33
460,-34
460,-33
461,-33
461,-34
461,-32
462,-33
462,-32
462,-34
463,-34
463,-33
463,-32
464,-32
464,-33
464,-34
465,-34
465,-33
465,-32
466,-33
466,-32
466,-34
467,-33
467,-32
467,-34
468,-33
468,-34
469,-34
469,-33
470,-35
470,-34
470,-33
471,-35
471,-34
471,-33
472,-35
472,-34
473,-35
473,-34
474,-34
474,-35
475,-34
475,-35
476,-34
476,-35
477,-34
477,-35
478,-34
478,-35
479,-34
479,-35
480,-34
480,-35
481,-34
481,-35
482,-34
482,-35
483,-35
483,-33
483,-34
484,-34
484,-33
485,-33
485,-34
486,-33
486,-34
486,-35
487,-34
487,-33
487,-36
487,-35
488,-36
488,-37
488,-35
489,-38
489,-36
489,-35
489,-37
490,-35
490,-37
490,-38
490,-36
491,-37
491,-35
491,-36
492,-37
492,-35
492,-36
493,-37
493,-35
493,-36
494,-36
494,-35
495,-36
495,-35
496,-35
496,-34
496,-36
497,-35
497,-33
497,-34
497,-36
498,-32
498,-35
498,-34
498,-37
498,-36
498,-30
498,-31
498,-33
499,-54
499,-63
499,-64
499,-66
499,-47
499,-42
499,-40
499,-59
499,-69
499,-38
499,-46
499,-41
499,-51
499,-50
499,-65
499,-49
499,-53
499,-45
499,-70
499,-36
499,-32
499,-58
499,-52
499,-57
499,-43
499,-34
499,-48
499,-62
499,-35
499,-56
499,-71
499,-60
499,-39
499,-55
499,-68
499,-72
499,-44
499,-37
499,-73
499,-31
499,-33
499,-67
499,-30
499,-61
500,-83
500,-60
500,-66
500,-49
500,-61
500,-81
500,-71
500,-70
500,-59
500,-80
500,-36
500,-73
500,-51
500,-82
500,-85
500,-69
500,-33
500,-47
500,-50
500,-37
500,-79
500,-39
500,-40
500,-63
500,-46
500,-88
500,-75
500,-48
500,-65
500,-62
500,-76
500,-72
500,-56
500,-52
500,-34
500,-42
500,-32
500,-64
500,-38
500,-41
500,-58
500,-57
500,-43
500,-74
500,-87
500,-53
500,-45
500,-67
500,-54
500,-86
500,-68
500,-78
500,-84
500,-35
500,-77
500,-44
500,-55
501,-62
501,-54
501,-69
501,-57
501,-50
501,-77
501,-55
501,-82
501,-47
501,-52
501,-58
501,-48
501,-85
501,-68
501,-79
501,-44
501,-67
501,-64
501,-80
501,-74
501,-73
501,-61
501,-78
501,-59
501,-56
501,-66
501,-81
501,-83
501,-49
501,-45
501,-53
501,-71
501,-51
501,-84
501,-86
501,-65
501,-76
501,-88
501,-75
501,-60
501,-46
501,-70
501,-63
501,-72
501,-87
502,-61
502,-72
502,-77
502,-57
502,-67
502,-81
502,-48
502,-43
502,-60
502,-82
502,-56
502,-76
502,-80
502,-64
502,-52
502,-78
502,-59
502,-66
502,-45
502,-49
502,-83
502,-53
502,-84
502,-51
502,-71
502,-70
502,-65
502,-75
502,-63
502,-73
502,-74
502,-69
502,-54
502,-50
502,-47
502,-85
502,-44
502,-79
502,-62
502,-68
502,-55
502,-46
502,-58
503,-49
503,-47
503,-45
503,-48
503,-56
503,-43
503,-57
503,-41
503,-42
503,-44
503,-52
503,-51
503,-46
503,-40
503,-50
504,-38
504,-41
504,-40
504,-43
504,-39
504,-42
505,-40
505,-39
505,-38
505,-37
506,-38
506,-37
506,-39
507,-38
507,-37
508,-38
508,-37
509,-38
509,-37
510,-37
510,-38
510,-39
511,-37
511,-38
511,-39
512,-38
512,-39
513,-38
513,-39
514,-40
514,-39
514,-38
515,-39
515,-38
515,-40
516,-40
516,-39
517,-40
517,-39
518,-38
518,-40
518,-39
519,-39
519,-38
519,-40
520,-37
520,-38
520,-39
521,-37
521,-39
521,-36
521,-38
522,-36
522,-37
522,-38
522,-35
523,-36
523,-35
523,-37
523,-34
524,-35
524,-33
524,-34
525,-34
525,-33
526,-34
526,-33
527,-33
527,-34
528,-34
528,-33
529,-34
529,-33
530,-34
530,-33
531,-91
531,-92
531,-90
531,-33
531,-34
532,-87
532,-88
532,-89
532,-93
532,-92
532,-86
532,-85
532,-90
532,-34
532,-33
532,-91
533,-91
533,-86
533,-87
533,-84
533,-89
533,-88
533,-34
533,-92
533,-90
533,-93
533,-33
533,-85
534,-93
534,-92
534,-33
534,-88
534,-85
534,-34
534,-86
534,-89
534,-91
534,-84
534,-90
534,-87
535,-33
535,-92
535,-32
535,-93
535,-84
535,-34
535,-91
535,-86
535,-89
535,-88
535,-85
535,-87
535,-90
536,-89
536,-85
536,-84
536,-93
536,-87
536,-91
536,-90
536,-88
536,-92
536,-33
536,-32
536,-86
536,-34
537,-90
537,-91
537,-33
537,-85
537,-86
537,-88
537,-89
537,-84
537,-32
537,-87
537,-93
537,-92
538,-90
538,-91
538,-33
538,-89
538,-85
538,-32
538,-84
538,-88
538,-31
538,-87
538,-93
538,-92
538,-86
539,-31
539,-88
539,-86
539,-89
539,-91
539,-93
539,-90
539,-32
539,-33
539,-84
539,-92
539,-85
539,-87
540,-89
540,-31
540,-88
540,-90
540,-84
540,-92
540,-86
540,-33
540,-85
540,-91
540,-32
540,-93
540,-87
541,-90
541,-92
541,-86
541,-93
541,-33
541,-32
541,-87
541,-84
541,-31
541,-85
541,-91
542,-87
542,-33
542,-85
542,-84
542,-91
542,-90
542,-92
542,-31
542,-86
542,-88
542,-93
542,-89
542,-32
543,-90
543,-93
543,-84
543,-32
543,-33
543,-31
543,-87
543,-85
543,-92
543,-88
543,-86
543,-91
543,-89
544,-84
544,-92
544,-33
544,-93
544,-89
544,-32
544,-91
544,-87
544,-88
544,-85
544,-86
544,-90
545,-92
545,-90
545,-93
545,-33
545,-88
545,-89
545,-86
545,-91
545,-85
545,-32
545,-84
545,-87
546,-92
546,-93
546,-89
546,-34
546,-33
546,-87
546,-32
546,-84
546,-85
546,-90
546,-88
546,-91
546,-86
547,-32
547,-89
547,-87
547,-86
547,-33
547,-84
547,-88
547,-85
547,-91
547,-90
547,-92
547,-34
548,-33
548,-87
548,-34
548,-86
548,-90
548,-91
548,-32
548,-92
548,-88
548,-85
548,-89
549,-90
549,-92
549,-88
549,-91
549,-33
549,-86
549,-34
549,-32
549,-89
549,-87
550,-33
550,-34
550,-89
550,-91
550,-92
550,-90
550,-88
550,-32
550,-87
551,-34
551,-89
551,-88
551,-33
551,-32
552,-34
552,-33
552,-32
553,-32
553,-34
553,-33
554,-32
554,-33
554,-34
555,-34
555,-32
555,-33
556,-34
556,-33
556,-32
557,-87
557,-91
557,-33
557,-90
557,-32
557,-34
557,-86
557,-89
557,-88
558,-31
558,-92
558,-32
558,-88
558,-85
558,-87
558,-89
558,-86
558,-91
558,-90
558,-33
558,-93
559,-31
559,-86
559,-87
559,-33
559,-84
559,-90
559,-85
559,-88
559,-91
559,-92
559,-89
559,-32
559,-93
560,-87
560,-31
560,-88
560,-93
560,-89
560,-91
560,-33
560,-86
560,-90
560,-32
560,-85
560,-92
560,-30
561,-33
561,-30
561,-32
561,-86
561,-87
561,-90
561,-31
561,-92
561,-85
561,-88
561,-91
561,-89
562,-88
562,-30
562,-34
562,-89
562,-86
562,-31
562,-91
562,-90
562,-33
562,-87
562,-32
563,-34
563,-31
563,-35
563,-32
563,-33
564,-33
564,-34
564,-36
564,-35
565,-33
565,-36
565,-35
565,-34
566,-34
566,-33
566,-35
567,-33
567,-35
567,-34
568,-84
568,-35
568,-86
568,-93
568,-85
568,-88
568,-34
568,-33
568,-91
568,-89
568,-92
568,-87
568,-90
569,-87
569,-88
569,-84
569,-92
569,-35
569,-89
569,-90
569,-86
569,-93
569,-85
569,-91
569,-34
569,-33
570,-84
570,-86
570,-32
570,-33
570,-90
570,-87
570,-93
570,-85
570,-92
570,-91
570,-34
570,-88
570,-89
571,-87
571,-92
571,-93
571,-34
571,-89
571,-88
571,-86
571,-91
571,-33
571,-32
571,-84
571,-90
571,-85
572,-88
572,-87
572,-84
572,-91
572,-33
572,-93
572,-34
572,-32
572,-31
572,-85
572,-90
572,-92
572,-86
572,-89
573,-89
573,-91
573,-33
573,-29
573,-28
573,-87
573,-86
573,-84
573,-88
573,-93
573,-92
573,-85
573,-30
573,-32
573,-34
573,-90
573,-31
574,-28
574,-33
574,-90
574,-89
574,-91
574,-31
574,-93
574,-85
574,-34
574,-88
574,-87
574,-86
574,-84
574,-35
574,-32
574,-27
574,-29
574,-92
574,-30
575,-29
575,-52
575,-93
575,-56
575,-57
575,-58
575,-34
575,-92
575,-51
575,-88
575,-87
575,-50
575,-89
575,-28
575,-83
575,-39
575,-90
575,-38
575,-36
575,-59
575,-47
575,-48
575,-35
575,-53
575,-54
575,-30
575,-49
575,-84
575,-55
575,-72
575,-61
575,-65
575,-37
575,-62
575,-69
575,-64
575,-85
575,-75
575,-66
575,-68
575,-45
575,-33
575,-41
575,-73
575,-31
575,-86
575,-44
575,-42
575,-63
575,-74
575,-43
575,-40
575,-71
575,-67
575,-32
575,-91
575,-70
575,-60
575,-46
576,-41
576,-60
576,-33
576,-92
576,-87
576,-57
576,-88
576,-58
576,-93
576,-45
576,-90
576,-66
576,-79
576,-86
576,-49
576,-50
576,-82
576,-67
576,-51
576,-85
576,-63
576,-74
576,-31
576,-73
576,-54
576,-34
576,-44
576,-84
576,-52
576,-46
576,-42
576,-68
576,-56
576,-62
576,-75
576,-47
576,-61
576,-64
576,-80
576,-81
576,-38
576,-77
576,-69
576,-91
576,-70
576,-48
576,-76
576,-65
576,-43
576,-72
576,-40
576,-39
576,-78
576,-59
576,-53
576,-71
576,-89
576,-83
576,-32
576,-55
577,-63
577,-65
577,-88
577,-91
577,-76
577,-64
577,-85
577,-77
577,-86
577,-87
577,-74
577,-89
577,-66
577,-51
577,-78
577,-75
577,-82
577,-67
577,-48
577,-43
577,-62
577,-80
577,-69
577,-61
577,-55
577,-47
577,-71
577,-90
577,-70
577,-81
577,-53
577,-50
577,-60
577,-46
577,-54
577,-72
577,-59
577,-79
577,-92
577,-52
577,-44
577,-84
577,-57
577,-93
577,-73
577,-49
577,-45
577,-68
577,-83
577,-58
577,-56
578,-73
578,-70
578,-85
578,-53
578,-67
578,-68
578,-93
578,-88
578,-72
578,-69
578,-74
578,-51
578,-55
578,-66
578,-89
578,-52
578,-71
578,-49
578,-63
578,-40
578,-64
578,-47
578,-44
578,-61
578,-42
578,-77
578,-45
578,-80
578,-82
578,-84
578,-86
578,-62
578,-79
578,-87
578,-78
578,-92
578,-43
578,-41
578,-39
578,-76
578,-83
578,-46
578,-54
578,-60
578,-58
578,-50
578,-57
578,-81
578,-91
578,-65
578,-56
578,-59
578,-90
578,-75
578,-48
579,-48
579,-49
579,-93
579,-83
579,-44
579,-84
579,-41
579,-92
579,-43
579,-46
579,-85
579,-91
579,-50
579,-38
579,-88
579,-42
579,-90
579,-39
579,-37
579,-40
579,-47
579,-89
579,-86
579,-87
579,-45
580,-90
580,-39
580,-84
580,-86
580,-92
580,-87
580,-89
580,-91
580,-85
580,-37
580,-36
580,-38
580,-93
580,-88
581,-92
581,-91
581,-85
581,-35
581,-90
581,-93
581,-36
581,-37
581,-89
581,-86
581,-87
581,-84
581,-88
582,-36
582,-85
582,-88
582,-93
582,-91
582,-92
582,-87
582,-84
582,-90
582,-35
582,-86
582,-89
583,-84
583,-87
583,-90
583,-88
583,-86
583,-91
583,-36
583,-85
583,-92
583,-35
583,-93
583,-89
584,-35
584,-84
584,-85
584,-36
584,-90
584,-86
584,-88
584,-87
584,-92
584,-89
584,-91
585,-89
585,-88
585,-92
585,-90
585,-86
585,-85
585,-91
585,-36
585,-87
585,-35
586,-87
586,-92
586,-88
586,-91
586,-35
586,-90
586,-36
586,-89
586,-86
587,-92
587,-35
587,-88
587,-90
587,-36
587,-91
587,-89
587,-93
587,-87
588,-92
588,-88
588,-37
588,-36
588,-35
589,-37
589,-35
589,-36
589,-92
590,-85
590,-36
590,-90
590,-88
590,-91
590,-89
590,-87
590,-86
590,-92
590,-93
590,-37
591,-91
591,-93
591,-89
591,-37
591,-36
591,-85
591,-87
591,-86
591,-88
591,-90
591,-92
592,-36
592,-88
592,-85
592,-91
592,-90
592,-92
592,-86
592,-87
592,-37
592,-89
592,-93
593,-91
593,-87
593,-37
593,-88
593,-93
593,-89
593,-90
593,-36
593,-86
593,-92
594,-92
594,-89
594,-91
594,-35
594,-90
594,-36
594,-37
594,-88
594,-86
594,-87
595,-89
595,-87
595,-91
595,-36
595,-86
595,-93
595,-90
595,-35
595,-92
595,-34
595,-85
595,-88
596,-87
596,-88
596,-92
596,-86
596,-90
596,-34
596,-91
596,-85
596,-33
596,-36
596,-93
596,-35
596,-89
597,-93
597,-32
597,-86
597,-87
597,-90
597,-33
597,-91
597,-92
597,-85
597,-34
597,-35
597,-88
597,-84
597,-89
598,-93
598,-34
598,-32
598,-89
598,-86
598,-33
598,-85
598,-87
598,-92
598,-88
598,-91
598,-90
598,-31
599,-92
599,-90
599,-86
599,-32
599,-33
599,-91
599,-31
599,-88
599,-30
599,-89
599,-87
600,-31
600,-30
601,-29
601,-30
601,-31
602,-29
602,-31
602,-30
603,-31
603,-30
603,-29
604,-31
604,-29
604,-30
605,-87
605,-31
605,-90
605,-88
605,-85
605,-30
605,-89
605,-91
605,-86
605,-92
606,-93
606,-89
606,-88
606,-91
606,-86
606,-90
606,-92
606,-84
606,-87
606,-31
606,-30
606,-85
607,-89
607,-91
607,-31
607,-85
607,-84
607,-30
607,-86
607,-88
607,-87
607,-90
607,-32
607,-93
607,-92
608,-89
608,-91
608,-32
608,-93
608,-30
608,-85
608,-88
608,-31
608,-87
608,-84
608,-92
608,-90
608,-86
609,-84
609,-86
609,-93
609,-90
609,-32
609,-31
609,-88
609,-89
609,-91
609,-92
609,-30
609,-85
609,-87
610,-89
610,-92
610,-88
610,-84
610,-87
610,-86
610,-93
610,-31
610,-85
610,-90
610,-91
610,-30
610,-32
611,-92
611,-31
611,-88
611,-90
611,-30
611,-32
611,-84
611,-85
611,-87
611,-86
611,-93
611,-91
611,-89
612,-90
612,-84
612,-85
612,-31
612,-92
612,-89
612,-86
612,-91
612,-93
612,-88
612,-30
612,-87
613,-89
613,-86
613,-31
613,-85
613,-93
613,-84
613,-29
613,-90
613,-30
613,-88
613,-91
613,-92
613,-87
614,-85
614,-91
614,-86
614,-92
614,-89
614,-29
614,-84
614,-88
614,-30
614,-31
614,-93
614,-90
614,-87
615,-29
615,-30
615,-89
615,-85
615,-90
615,-88
615,-92
615,-91
615,-87
615,-31
615,-93
615,-86
615,-84
616,-84
616,-29
616,-87
616,-31
616,-89
616,-30
616,-85
616,-86
616,-88
616,-93
616,-90
616,-91
616,-92
617,-29
617,-89
617,-86
617,-92
617,-91
617,-88
617,-31
617,-84
617,-90
617,-85
617,-30
617,-87
618,-91
618,-90
618,-30
618,-86
618,-29
618,-89
618,-31
618,-84
618,-92
618,-87
618,-88
618,-85
619,-84
619,-85
619,-31
619,-86
619,-30
619,-87
619,-89
619,-90
619,-88
620,-88
620,-84
620,-86
620,-30
620,-31
620,-85
620,-87
621,-30
621,-86
621,-93
621,-91
621,-84
621,-92
621,-31
621,-32
621,-87
621,-88
621,-85
622,-30
622,-88
622,-93
622,-87
622,-90
622,-84
622,-92
622,-86
622,-89
622,-85
622,-31
622,-91
622,-32
623,-84
623,-32
623,-90
623,-85
623,-87
623,-31
623,-93
623,-91
623,-88
623,-89
623,-92
623,-86
624,-32
624,-31
624,-85
624,-92
624,-88
624,-84
624,-87
624,-86
625,-31
625,-85
625,-88
625,-84
625,-87
625,-86
625,-33
625,-32
626,-87
626,-85
626,-88
626,-86
626,-92
626,-33
626,-31
626,-89
626,-32
627,-32
627,-31
627,-89
627,-93
627,-91
627,-92
627,-33
627,-88
627,-87
628,-33
628,-32
628,-31
629,-32
629,-33
630,-33
630,-32
631,-33
631,-32
631,-31
632,-32
632,-33
632,-31
633,-31
633,-32
633,-33
634,-31
634,-30
634,-32
635,-92
635,-89
635,-93
635,-88
635,-30
635,-86
635,-85
635,-90
635,-32
635,-91
635,-31
635,-87
636,-91
636,-93
636,-85
636,-33
636,-30
636,-88
636,-89
636,-86
636,-32
636,-92
636,-90
636,-31
636,-87
637,-33
637,-91
637,-87
637,-31
637,-90
637,-92
637,-89
637,-34
637,-86
637,-88
637,-85
637,-93
637,-32
638,-91
638,-90
638,-32
638,-93
638,-87
638,-34
638,-86
638,-92
638,-35
638,-33
639,-86
639,-91
639,-87
639,-85
639,-35
639,-92
639,-34
639,-36
639,-90
639,-33
640,-86
640,-89
640,-36
640,-85
640,-90
640,-87
640,-35
640,-88
640,-34
640,-92
640,-93
640,-91
641,-92
641,-86
641,-84
641,-91
641,-88
641,-93
641,-87
641,-34
641,-89
641,-35
641,-85
641,-90
641,-33
642,-84
642,-93
642,-85
642,-88
642,-34
642,-86
642,-89
642,-90
642,-33
642,-35
642,-87
642,-91
642,-92
643,-93
643,-34
643,-90
643,-33
643,-87
643,-89
643,-88
643,-85
643,-35
643,-92
643,-86
643,-91
644,-87
644,-85
644,-92
644,-35
644,-91
644,-88
644,-86
644,-89
644,-34
644,-90
644,-33
645,-35
645,-34
645,-92
645,-33
645,-89
645,-90
645,-88
645,-91
645,-87
646,-87
646,-90
646,-92
646,-33
646,-91
646,-32
646,-88
646,-89
646,-34
647,-90
647,-91
647,-32
647,-31
647,-89
647,-33
647,-92
647,-34
647,-88
647,-30
647,-87
648,-35
648,-31
648,-91
648,-30
648,-88
648,-34
648,-89
648,-32
648,-28
648,-33
648,-29
648,-90
648,-87
648,-92
649,-74
649,-72
649,-59
649,-40
649,-56
649,-57
649,-62
649,-49
649,-54
649,-58
649,-52
649,-31
649,-67
649,-61
649,-48
649,-50
649,-75
649,-85
649,-93
649,-45
649,-89
649,-68
649,-38
649,-28
649,-73
649,-46
649,-60
649,-33
649,-69
649,-92
649,-66
649,-65
649,-71
649,-41
649,-29
649,-64
649,-36
649,-55
649,-35
649,-53
649,-44
649,-42
649,-51
649,-70
649,-43
649,-63
649,-90
649,-88
649,-39
649,-87
649,-47
649,-30
649,-34
649,-86
649,-91
649,-32
650,-83
650,-81
650,-84
650,-40
650,-70
650,-61
650,-52
650,-39
650,-59
650,-53
650,-60
650,-54
650,-86
650,-90
650,-50
650,-71
650,-72
650,-47
650,-46
650,-82
650,-48
650,-68
650,-73
650,-93
650,-69
650,-41
650,-89
650,-56
650,-92
650,-67
650,-77
650,-87
650,-57
650,-55
650,-64
650,-74
650,-62
650,-43
650,-63
650,-88
650,-45
650,-42
650,-85
650,-75
650,-58
650,-51
650,-79
650,-49
650,-80
650,-91
650,-76
650,-66
650,-44
650,-65
650,-78
651,-44
651,-43
651,-42
651,-78
651,-90
651,-80
651,-53
651,-92
651,-77
651,-64
651,-51
651,-84
651,-76
651,-71
651,-86
651,-55
651,-52
651,-65
651,-75
651,-50
651,-63
651,-88
651,-59
651,-47
651,-93
651,-58
651,-61
651,-45
651,-70
651,-49
651,-79
651,-83
651,-81
651,-73
651,-57
651,-87
651,-62
651,-69
651,-46
651,-60
651,-72
651,-74
651,-66
651,-91
651,-67
651,-68
651,-56
651,-82
651,-89
651,-85
651,-48
651,-54
652,-47
652,-70
652,-58
652,-49
652,-69
652,-56
652,-57
652,-92
652,-83
652,-51
652,-48
652,-88
652,-71
652,-85
652,-46
652,-72
652,-73
652,-68
652,-82
652,-60
652,-44
652,-81
652,-45
652,-40
652,-61
652,-80
652,-41
652,-93
652,-87
652,-91
652,-79
652,-62
652,-66
652,-74
652,-67
652,-54
652,-59
652,-89
652,-76
652,-75
652,-42
652,-64
652,-86
652,-53
652,-84
652,-52
652,-77
652,-90
652,-63
652,-78
652,-55
652,-43
652,-50
652,-65
653,-49
653,-91
653,-42
653,-85
653,-88
653,-41
653,-92
653,-44
653,-43
653,-87
653,-38
653,-50
653,-39
653,-86
653,-51
653,-84
653,-90
653,-47
653,-48
653,-45
653,-40
653,-93
653,-46
653,-89
654,-90
654,-89
654,-84
654,-37
654,-86
654,-88
654,-92
654,-91
654,-42
654,-38
654,-39
654,-41
654,-93
654,-85
654,-87
654,-40
655,-92
655,-39
655,-89
655,-84
655,-91
655,-37
655,-87
655,-88
655,-93
655,-86
655,-38
655,-90
655,-36
655,-85
656,-86
656,-37
656,-91
656,-85
656,-90
656,-38
656,-93
656,-92
656,-84
656,-89
656,-87
656,-88
656,-36
657,-90
657,-92
657,-85
657,-89
657,-87
657,-37
657,-91
657,-86
657,-36
657,-88
658,-89
658,-91
658,-87
658,-90
658,-86
658,-88
658,-37
658,-36
659,-37
659,-36
659,-38
660,-37
660,-36
660,-38
661,-37
661,-38
662,-38
662,-37
663,-38
663,-37
664,-86
664,-88
664,-37
664,-91
664,-93
664,-92
664,-87
664,-38
664,-39
664,-85
665,-93
665,-91
665,-87
665,-37
665,-39
665,-85
665,-89
665,-88
665,-38
665,-92
665,-90
665,-86
666,-39
666,-89
666,-38
666,-88
666,-87
666,-85
666,-92
666,-37
666,-90
666,-93
666,-84
666,-86
666,-91
667,-89
667,-38
667,-88
667,-37
667,-90
667,-85
667,-87
667,-91
667,-86
667,-39
667,-92
667,-93
668,-89
668,-92
668,-91
668,-38
668,-39
668,-93
668,-85
668,-37
668,-87
668,-90
668,-86
668,-88
669,-39
669,-85
669,-90
669,-38
669,-89
669,-92
669,-87
669,-37
669,-88
669,-86
669,-91
670,-89
670,-92
670,-86
670,-90
670,-85
670,-39
670,-91
670,-37
670,-88
670,-87
670,-38
671,-86
671,-89
671,-85
671,-90
671,-37
671,-84
671,-92
671,-38
671,-36
671,-91
671,-93
671,-87
671,-88
672,-36
672,-89
672,-85
672,-34
672,-37
672,-88
672,-84
672,-91
672,-90
672,-35
672,-86
672,-92
672,-87
672,-93
673,-89
673,-35
673,-36
673,-92
673,-85
673,-88
673,-91
673,-34
673,-87
673,-90
673,-86
673,-33
674,-33
674,-34
674,-90
674,-88
674,-35
674,-91
674,-89
674,-86
674,-87
675,-90
675,-91
675,-88
675,-89
675,-33
675,-34
676,-34
676,-33
676,-89
676,-90
676,-91
677,-33
677,-92
677,-91
677,-90
677,-34
677,-89
678,-92
678,-91
678,-89
678,-33
678,-90
678,-34
679,-34
679,-89
679,-92
679,-33
679,-90
679,-88
679,-91
679,-93
680,-33
680,-86
680,-35
680,-93
680,-84
680,-87
680,-88
680,-89
680,-34
680,-91
680,-90
680,-85
680,-92
681,-91
681,-85
681,-84
681,-33
681,-88
681,-87
681,-93
681,-35
681,-86
681,-92
681,-34
681,-90
681,-89
682,-85
682,-86
682,-89
682,-87
682,-88
682,-92
682,-84
682,-91
682,-35
682,-93
682,-34
682,-90
683,-91
683,-92
683,-35
683,-87
683,-34
683,-93
683,-90
683,-88
683,-89
684,-91
684,-35
684,-34
684,-87
684,-90
684,-93
684,-92
684,-88
684,-89
685,-89
685,-35
685,-33
685,-93
685,-92
685,-91
685,-87
685,-85
685,-86
685,-88
685,-90
685,-34
686,-86
686,-84
686,-91
686,-85
686,-33
686,-87
686,-90
686,-93
686,-88
686,-92
686,-35
686,-34
686,-89
687,-85
687,-34
687,-93
687,-87
687,-91
687,-89
687,-33
687,-90
687,-92
687,-88
687,-86
688,-32
688,-34
688,-33
688,-90
688,-92
688,-87
688,-88
688,-89
688,-91
688,-93
688,-86
688,-85
689,-32
689,-89
689,-88
689,-90
689,-86
689,-92
689,-87
689,-93
689,-34
689,-91
689,-33
690,-91
690,-87
690,-88
690,-90
690,-85
690,-92
690,-33
690,-86
690,-32
690,-89
690,-93
690,-34
691,-86
691,-85
691,-32
691,-90
691,-91
691,-92
691,-33
691,-34
691,-88
691,-87
691,-84
691,-89
691,-93
692,-92
692,-87
692,-88
692,-91
692,-34
692,-86
692,-93
692,-33
692,-32
692,-85
692,-84
692,-90
692,-89
693,-34
693,-86
693,-84
693,-88
693,-91
693,-32
693,-87
693,-89
693,-90
693,-92
693,-33
693,-85
694,-84
694,-33
694,-85
694,-32
694,-88
694,-90
694,-34
694,-91
694,-86
694,-87
694,-92
694,-89
695,-33
695,-85
695,-86
695,-84
695,-88
695,-92
695,-87
695,-90
695,-91
695,-89
695,-34
696,-91
696,-84
696,-35
696,-93
696,-86
696,-34
696,-92
696,-87
696,-85
696,-88
696,-90
696,-89
696,-33
697,-91
697,-85
697,-88
697,-90
697,-89
697,-34
697,-35
697,-33
697,-86
697,-87
697,-84
697,-92
698,-35
698,-88
698,-91
698,-89
698,-34
698,-90
699,-34
699,-91
699,-33
699,-89
699,-35
699,-90
700,-34
700,-89
700,-90
700,-35
700,-33
701,-34
701,-35
701,-33
702,-92
702,-34
702,-88
702,-87
702,-85
702,-86
702,-90
702,-35
702,-91
702,-89
703,-91
703,-93
703,-92
703,-88
703,-87
703,-85
703,-34
703,-90
703,-35
703,-86
703,-89
704,-91
704,-90
704,-34
704,-86
704,-85
704,-88
704,-92
704,-35
704,-87
704,-89
704,-93
705,-88
705,-93
705,-35
705,-92
705,-86
705,-87
705,-91
705,-34
705,-90
705,-89
705,-85
706,-91
706,-35
706,-90
706,-86
706,-85
706,-92
706,-87
706,-88
706,-89
706,-34
707,-85
707,-91
707,-88
707,-86
707,-90
707,-92
707,-89
707,-34
707,-87
707,-35
708,-89
708,-91
708,-35
708,-87
708,-86
708,-92
708,-90
708,-93
708,-34
708,-88
708,-85
709,-89
709,-34
709,-87
709,-88
709,-90
709,-84
709,-85
709,-92
709,-33
709,-35
709,-93
709,-91
709,-86
710,-86
710,-88
710,-91
710,-32
710,-89
710,-90
710,-92
710,-33
710,-34
710,-85
710,-87
711,-85
711,-88
711,-91
711,-92
711,-86
711,-89
711,-34
711,-33
711,-87
711,-90
711,-32
712,-90
712,-35
712,-89
712,-91
712,-85
712,-32
712,-92
712,-34
712,-86
712,-33
712,-87
712,-88
713,-35
713,-93
713,-88
713,-86
713,-90
713,-85
713,-33
713,-91
713,-92
713,-89
713,-34
713,-36
713,-87
714,-92
714,-35
714,-89
714,-36
714,-87
714,-91
714,-84
714,-85
714,-37
714,-34
714,-88
714,-86
714,-90
714,-93
715,-92
715,-35
715,-87
715,-88
715,-93
715,-89
715,-85
715,-36
715,-86
715,-37
715,-90
715,-84
715,-91
716,-89
716,-87
716,-85
716,-35
716,-37
716,-91
716,-90
716,-86
716,-88
716,-36
716,-92
717,-35
717,-37
717,-87
717,-91
717,-89
717,-92
717,-90
717,-86
717,-85
717,-88
717,-36
718,-91
718,-87
718,-36
718,-86
718,-92
718,-35
718,-90
718,-89
718,-88
719,-35
719,-86
719,-36
719,-85
719,-89
719,-91
719,-90
719,-87
719,-88
719,-92
720,-90
720,-85
720,-35
720,-92
720,-93
720,-86
720,-34
720,-87
720,-91
720,-89
720,-36
720,-88
721,-93
721,-35
721,-86
721,-92
721,-85
721,-34
721,-36
721,-87
721,-88
721,-89
721,-91
721,-90
722,-87
722,-89
722,-92
722,-35
722,-88
722,-91
722,-34
722,-90
723,-35
723,-32
723,-34
723,-33
724,-34
724,-36
724,-33
724,-35
724,-30
724,-31
724,-32
725,-38
725,-30
725,-49
725,-32
725,-36
725,-37
725,-48
725,-44
725,-50
725,-47
725,-42
725,-58
725,-39
725,-60
725,-46
725,-55
725,-61
725,-57
725,-59
725,-45
725,-41
725,-34
725,-35
725,-54
725,-43
725,-56
725,-40
725,-52
725,-51
725,-31
725,-33
725,-53
726,-41
726,-45
726,-50
726,-88
726,-77
726,-87
726,-46
726,-42
726,-51
726,-60
726,-62
726,-79
726,-36
726,-61
726,-78
726,-37
726,-80
726,-83
726,-63
726,-44
726,-57
726,-48
726,-33
726,-81
726,-66
726,-84
726,-71
726,-69
726,-56
726,-52
726,-53
726,-54
726,-35
726,-70
726,-72
726,-86
726,-75
726,-68
726,-47
726,-58
726,-65
726,-73
726,-76
726,-39
726,-34
726,-67
726,-38
726,-64
726,-59
726,-74
726,-82
726,-55
726,-49
726,-43
726,-85
726,-40
727,-70
727,-87
727,-47
727,-61
727,-75
727,-46
727,-81
727,-82
727,-60
727,-86
727,-84
727,-58
727,-89
727,-55
727,-71
727,-56
727,-69
727,-72
727,-57
727,-68
727,-73
727,-67
727,-74
727,-59
727,-48
727,-80
727,-83
727,-50
727,-85
727,-78
727,-63
727,-88
727,-51
727,-77
727,-64
727,-53
727,-76
727,-52
727,-62
727,-49
727,-79
727,-65
727,-66
727,-54
728,-90
728,-75
728,-61
728,-84
728,-65
728,-57
728,-79
728,-63
728,-56
728,-76
728,-77
728,-80
728,-55
728,-87
728,-60
728,-64
728,-81
728,-68
728,-74
728,-46
728,-59
728,-47
728,-48
728,-49
728,-83
728,-66
728,-54
728,-52
728,-58
728,-51
728,-70
728,-88
728,-85
728,-53
728,-82
728,-45
728,-50
728,-67
728,-73
728,-78
728,-44
728,-72
728,-69
728,-62
728,-71
728,-89
728,-86
728,-91
729,-56
729,-58
729,-92
729,-59
729,-57
729,-89
729,-88
729,-84
729,-55
729,-83
729,-50
729,-42
729,-43
729,-54
729,-47
729,-41
729,-53
729,-46
729,-40
729,-52
729,-49
729,-45
729,-85
729,-87
729,-44
729,-86
729,-90
729,-91
729,-51
729,-48
730,-89
730,-86
730,-93
730,-43
730,-91
730,-42
730,-38
730,-41
730,-40
730,-84
730,-85
730,-39
730,-88
730,-90
730,-87
730,-92
731,-85
731,-91
731,-87
731,-89
731,-40
731,-38
731,-93
731,-90
731,-86
731,-88
731,-92
731,-39
731,-37
731,-84
732,-84
732,-37
732,-39
732,-92
732,-86
732,-87
732,-85
732,-88
732,-38
732,-93
732,-90
732,-89
732,-91
733,-91
733,-90
733,-87
733,-92
733,-89
733,-37
733,-88
733,-85
733,-86
733,-84
733,-38
734,-86
734,-37
734,-92
734,-85
734,-88
734,-89
734,-87
734,-90
734,-38
734,-91
735,-38
735,-89
735,-92
735,-90
735,-91
735,-37
735,-86
735,-85
735,-88
735,-87
736,-92
736,-91
736,-86
736,-84
736,-89
736,-90
736,-93
736,-87
736,-88
736,-38
736,-37
736,-85
737,-90
737,-88
737,-37
737,-87
737,-86
737,-92
737,-91
737,-85
737,-93
737,-89
737,-38
737,-84
738,-87
738,-85
738,-37
738,-84
738,-88
738,-86
738,-90
738,-91
738,-38
738,-89
738,-93
738,-39
738,-92
739,-86
739,-87
739,-84
739,-38
739,-93
739,-92
739,-85
739,-90
739,-39
739,-88
739,-91
739,-89
739,-37
740,-39
740,-88
740,-87
740,-90
740,-38
740,-89
740,-93
740,-91
740,-85
740,-84
740,-86
740,-92
741,-86
741,-84
741,-93
741,-92
741,-88
741,-91
741,-87
741,-39
741,-89
741,-85
741,-90
741,-38
742,-39
742,-85
742,-90
742,-86
742,-91
742,-93
742,-84
742,-88
742,-87
742,-38
742,-89
742,-92
743,-84
743,-87
743,-91
743,-86
743,-92
743,-39
743,-85
743,-38
743,-88
743,-89
743,-93
743,-90
744,-85
744,-38
744,-89
744,-92
744,-91
744,-86
744,-84
744,-39
744,-90
744,-93
744,-88
744,-87
745,-87
745,-38
745,-92
745,-93
745,-39
745,-86
745,-88
745,-91
745,-85
745,-90
745,-84
745,-37
745,-89
746,-91
746,-37
746,-85
746,-88
746,-92
746,-93
746,-38
746,-89
746,-39
746,-90
746,-86
746,-87
746,-84
747,-89
747,-91
747,-37
747,-90
747,-86
747,-87
747,-85
747,-92
747,-36
747,-88
747,-38
747,-93
747,-84
748,-84
748,-36
748,-88
748,-85
748,-34
748,-93
748,-35
748,-37
748,-90
748,-91
748,-89
748,-86
748,-87
748,-92
749,-35
749,-90
749,-34
749,-89
749,-88
749,-36
749,-92
749,-33
749,-87
749,-84
749,-85
749,-91
749,-86
750,-93
750,-35
750,-90
750,-86
750,-34
750,-32
750,-33
750,-89
750,-85
750,-88
750,-91
750,-87
750,-92
751,-84
751,-93
751,-32
751,-87
751,-90
751,-92
751,-88
751,-34
751,-89
751,-33
751,-91
751,-85
751,-86
752,-34
752,-85
752,-87
752,-89
752,-88
752,-92
752,-90
752,-84
752,-86
752,-93
752,-33
752,-91
752,-32
753,-84
753,-32
753,-87
753,-90
753,-89
753,-91
753,-34
753,-33
753,-86
753,-92
753,-85
753,-93
753,-88
754,-93
754,-91
754,-32
754,-34
754,-33
754,-90
754,-88
754,-92
754,-89
754,-87
754,-85
754,-86
754,-84
755,-84
755,-34
755,-87
755,-86
755,-92
755,-90
755,-89
755,-88
755,-33
755,-91
755,-32
755,-85
755,-93
756,-90
756,-84
756,-91
756,-85
756,-86
756,-93
756,-33
756,-34
756,-92
756,-87
756,-88
756,-89
757,-33
757,-88
757,-89
757,-87
757,-84
757,-86
757,-91
757,-90
757,-85
757,-92
757,-93
757,-34
758,-85
758,-84
758,-87
758,-92
758,-33
758,-93
758,-91
758,-89
758,-90
758,-88
758,-34
758,-86
759,-90
759,-85
759,-87
759,-91
759,-86
759,-92
759,-84
759,-34
759,-88
759,-33
759,-93
759,-89
760,-90
760,-87
760,-93
760,-91
760,-86
760,-33
760,-92
760,-85
760,-34
760,-84
760,-88
760,-89
761,-34
761,-89
761,-87
761,-85
761,-84
761,-86
761,-92
761,-88
761,-33
761,-93
761,-90
761,-91
761,-98